*Frequency 	VF1-abs (dB)	VF1-phase (deg)
10	-1.87457718145432E-6	-0.0297011664185791
10.115794542599	-1.91824568894362E-6	-0.0300451172016716
10.2329299228075	-1.96293155464492E-6	-0.0303930517130623
10.3514216667934	-2.00865848367717E-6	-0.0307450161160991
10.471285480509	-2.05545073854162E-6	-0.0311010571098693
10.5925372517729	-2.10333313912184E-6	-0.0314612219354455
10.7151930523761	-2.15233109354223E-6	-0.0318255583822045
10.839269140212	-2.20247059334647E-6	-0.0321941147942218
10.9647819614318	-2.25377823857007E-6	-0.0325669400767406
11.091748152624	-2.30628125509833E-6	-0.0329440837027186
11.2201845430196	-2.36000749273772E-6	-0.0333255957194511
11.3501081567232	-2.41498546378906E-6	-0.0337115267552737
11.4815362149688	-2.47124433340434E-6	-0.0341019280263433
11.6144861384034	-2.52881395044518E-6	-0.0344968513435005
11.7489755493953	-2.58772486676957E-6	-0.0348963491192127
11.8850222743702	-2.6480083362675E-6	-0.0353004743746
12.0226443461741	-2.70969634764826E-6	-0.035709280746544
12.1618600064637	-2.77282163119076E-6	-0.0361228224948823
12.3026877081238	-2.83741768574481E-6	-0.0365411545096869
12.4451461177139	-2.90351878741016E-6	-0.0369643323186305
12.5892541179417	-2.97116001653775E-6	-0.0373924120944396
12.7350308101666	-3.04037726062278E-6	-0.0378254506624372
12.8824955169313	-3.11120725577094E-6	-0.038263505508175
13.031667784523	-3.18368758766278E-6	-0.0387066347851559
13.1825673855641	-3.2578567233767E-6	-0.0391548973226504
13.3352143216332	-3.33375402296092E-6	-0.0396083526336045
13.4896288259165	-3.41141976450621E-6	-0.0400670609226435
13.6458313658892	-3.4908951711471E-6	-0.0405310830941706
13.8038426460288	-3.57222242263401E-6	-0.0410004807605631
13.9636836105594	-3.65544468040586E-6	-0.0414753162504663
14.1253754462275	-3.74060611748441E-6	-0.0419556526171871
14.288939585111	-3.82775193679661E-6	-0.042441553647188
14.4543977074593	-3.91692839238998E-6	-0.0429330838686837
14.6217717445672	-4.00818281932693E-6	-0.0434303085603402
14.7910838816821	-4.10156365779312E-6	-0.0439332937600788
14.9623565609443	-4.19712047527721E-6	-0.0444421062739865
15.1356124843621	-4.29490400032247E-6	-0.0449568136853332
15.3108746168203	-4.39496613892057E-6	-0.0454774843636979
15.4881661891248	-4.49736001308493E-6	-0.0460041874742047
15.6675107010815	-4.6021399820661E-6	-0.0465369929868709
15.8489319246111	-4.7093616732105E-6	-0.0470759716860676
16.0324539069004	-4.81908201281914E-6	-0.0476211951800952
16.2181009735893	-4.93135925989935E-6	-0.0481727359108746
16.4058977319954	-5.04625302159428E-6	-0.048730667163756
16.5958690743756	-5.16382430718553E-6	-0.049295063077447
16.7880401812256	-5.28413554352268E-6	-0.0498659986540611
16.9824365246174	-5.40725061841834E-6	-0.0504435497692883
17.1790838715759	-5.53323490668533E-6	-0.0510277931826897
17.3780082874938	-5.66215531546039E-6	-0.0516188065481183
17.5792361395869	-5.7940803063841E-6	-0.0522166684242655
17.7827941003892	-5.92907994188893E-6	-0.0528214582853376
17.9887091512879	-6.06722592280845E-6	-0.053433256531863
18.1970085860998	-6.20859162405784E-6	-0.054052144501631
18.4077200146896	-6.35325212259979E-6	-0.0546782044807651
18.6208713666287	-6.50128426591226E-6	-0.055311519714933
18.836490894898	-6.65276668452516E-6	-0.0559521744206929
19.0546071796325	-6.80777984602319E-6	-0.0566002537969809
19.2752491319094	-6.96640610036977E-6	-0.0572558440367396
19.4984459975805	-7.12872971848065E-6	-0.0579190323386899
19.7242273611485	-7.29483694044089E-6	-0.0585899069192483
19.9526231496888	-7.4648160198645E-6	-0.0592685570245931
20.1836636368156	-7.63875727211142E-6	-0.0599550729428777
20.4173794466953	-7.81675312443321E-6	-0.0606495460165982
20.6538015581053	-7.99889816129717E-6	-0.0613520686551131
20.8929613085404	-8.18528917260333E-6	-0.0620627343473192
21.1348903983665	-8.37602521829524E-6	-0.0627816376744862
21.3796208950223	-8.57120766789813E-6	-0.0635088743232515
21.6271852372702	-8.77094026030805E-6	-0.0642445410987768
21.8776162394955	-8.97532916165236E-6	-0.064988735938071
22.1309470960564	-9.18448301350704E-6	-0.0657415579234792
22.3872113856834	-9.39851300329349E-6	-0.0665031072963425
22.6464430759306	-9.61753290960295E-6	-0.0672734854708284
22.9086765276777	-9.84165918223673E-6	-0.068052795047938
23.1739464996848	-1.00710109836733E-5	-0.0688411398296881
23.4422881531992	-1.03057102642871E-5	-0.0696386248334744
23.7137370566166	-1.05458818298524E-5	-0.070445356306617
23.9883291901949	-1.07916534013332E-5	-0.0712614417410904
24.2661009508242	-1.10431556881732E-5	-0.0720869898884416
24.5470891568503	-1.1300522458693E-5	-0.0729221107748986
24.8313310529557	-1.15638906075948E-5	-0.0737669157166727
25.1188643150958	-1.18334002331095E-5	-0.0746215173354564
25.409727055493	-1.21091947093236E-5	-0.075486029574121
25.7039578276886	-1.23914207700766E-5	-0.0763605677126167
26.0015956316527	-1.26802285783949E-5	-0.0772452483840768
26.3026799189538	-1.29757718152112E-5	-0.078140189591132
26.6072505979881	-1.32782077545844E-5	-0.0790455107224347
26.9153480392692	-1.35876973553123E-5	-0.0799613325693993
27.2270130807791	-1.39044053448304E-5	-0.0808877773431604
27.5422870333817	-1.42285003088966E-5	-0.0818249686917517
27.8612116862977	-1.45601547725966E-5	-0.0827730317175114
28.1838293126445	-1.48995453122088E-5	-0.0837320929947149
28.5101826750391	-1.52468526352454E-5	-0.0847022805874407
28.8403150312661	-1.56022616817098E-5	-0.0856837240676702
29.1742701400117	-1.59659617301752E-5	-0.0866765545336303
29.5120922666639	-1.63381464874701E-5	-0.0876809046283758
29.8538261891796	-1.67190142015073E-5	-0.0886969085586216
30.1995172040202	-1.71087677731493E-5	-0.0897247021138254
30.5492111321551	-1.75076148526442E-5	-0.0907644226855259
30.9029543251359	-1.79157679620987E-5	-0.09181620928694
31.2607936712395	-1.83334446063796E-5	-0.092880202572825
31.6227766016838	-1.87608673917296E-5	-0.0939565448596081
31.988951096914	-1.91982641501697E-5	-0.0950453801457885
32.3593656929628	-1.9645868048472E-5	-0.0961468541326176
32.7340694878838	-2.01039177366712E-5	-0.09726111424506
33.1131121482591	-2.05726574599303E-5	-0.0983883096530422
33.4965439157828	-2.10523371945161E-5	-0.0995285912929917
33.8844156139203	-2.15432127914888E-5	-0.100682111889674
34.276778654645	-2.20455461020697E-5	-0.101849025978328
34.6736850452532	-2.25596051348325E-5	-0.103029489927115
35.0751873952568	-2.30856641887855E-5	-0.104223661959871
35.4813389233575	-2.36240040095994E-5	-0.105431702179184
35.8921934645005	-2.41749119410124E-5	-0.10665377258979
36.3078054770101	-2.47386820791299E-5	-0.1078900371223
36.7282300498085	-2.53156154334734E-5	-0.109140661657262
37.1535229097173	-2.59060200928523E-5	-0.110405814049561
37.5837404288444	-2.65102113979864E-5	-0.111685664153173
38.0189396320561	-2.71285120938771E-5	-0.112980383846261
38.4591782045354	-2.77612525313607E-5	-0.114290147056643
38.9045144994281	-2.8408770835874E-5	-0.115615129787615
39.3550075455777	-2.90714130868284E-5	-0.116955510144158
39.8107170553497	-2.97495335153069E-5	-0.118311468359516
40.2717034325459	-3.04434946969394E-5	-0.119683186822167
40.7380277804113	-3.11536677457429E-5	-0.121070850103184
41.209751909733	-3.18804325301422E-5	-0.122474644984004
41.6869383470335	-3.26241778590963E-5	-0.123894760484599
42.1696503428582	-3.33853017202996E-5	-0.125331387892072
42.6579518801593	-3.41642114836677E-5	-0.126784720789673
43.1519076827765	-3.49613241260385E-5	-0.128254955086251
43.6515832240166	-3.57770664693757E-5	-0.129742289046151
44.1570447353313	-3.66118754093283E-5	-0.131246923319557
44.6683592150963	-3.74661981582568E-5	-0.1327690609733
45.1855944374922	-3.83404924844022E-5	-0.13430890752213
45.7088189614875	-3.92352269848075E-5	-0.135866670960473
46.238102139926	-4.01508813235241E-5	-0.137442561794673
46.7735141287198	-4.10879465074278E-5	-0.139036793075729
47.3151258961481	-4.20469251533568E-5	-0.14064958043255
47.8630092322638	-4.3028331773573E-5	-0.142281142105716
48.4172367584099	-4.40326930583306E-5	-0.143931698981787
48.9778819368446	-4.50605481642328E-5	-0.145601474628129
49.545019080479	-4.61124490209107E-5	-0.147290695328319
50.1187233627272	-4.7188960634811E-5	-0.14899959011809
50.6990708274704	-4.82906614084137E-5	-0.15072839082187
51.2861383991365	-4.94181434517369E-5	-0.152477332089899
51.8800038928961	-5.05720129324153E-5	-0.154246651435953
52.4807460249772	-5.17528903929938E-5	-0.15603658927568
53.0884444230988	-5.29614111222235E-5	-0.157847388965562
53.7031796370253	-5.41982254887523E-5	-0.159679296842522
54.3250331492433	-5.54639993220671E-5	-0.161532562264185
54.9540873857625	-5.67594142770455E-5	-0.163407437649815
55.5904257270404	-5.80851682303312E-5	-0.165304178521924
56.2341325190349	-5.94419756583896E-5	-0.167223043548598
56.8852930843842	-6.08305680570307E-5	-0.169164294586532
57.5439937337157	-6.22516943387547E-5	-0.171128196724798
58.2103217770871	-6.37061212715662E-5	-0.173115018329366
58.8843655355589	-6.51946339062177E-5	-0.175125031088396
59.566214352901	-6.67180360208141E-5	-0.177158510058306
60.2559586074358	-6.8277150583741E-5	-0.179215733710657
60.9536897240169	-6.98728202214183E-5	-0.181296983979851
61.6595001861482	-7.15059076928052E-5	-0.183402546311679
62.3734835482419	-7.31772963957324E-5	-0.185532709712731
63.0957344480193	-7.48878908578059E-5	-0.187687766800685
63.8263486190549	-7.66386172610676E-5	-0.189868013855509
64.5654229034655	-7.84304239869078E-5	-0.19207375087159
65.3130552647473	-8.02642821368745E-5	-0.194305281610806
66.0693448007596	-8.21411861200237E-5	-0.196562913656579
66.8343917568615	-8.40621542026648E-5	-0.198846958468932
67.6082975391982	-8.60282291198276E-5	-0.201157731440552
68.3911647281429	-8.80404786597303E-5	-0.203495551953919
69.1830970918936	-9.0099996304185E-5	-0.205860743439507
69.9841996002273	-9.22079018526124E-5	-0.208253633435082
70.7945784384138	-9.436534207692E-5	-0.210674553646137
71.6143410212902	-9.65734913966365E-5	-0.213123840007488
72.443596007499	-9.88335525694801E-5	-0.215601832746061
73.2824533138904	-0.000101146757380968	-0.218108876444899
74.1310241300918	-0.000103514367395747	-0.220645320108426
74.9894209332456	-0.000105937674682899	-0.223211517228999
75.8577575029184	-0.000108418002582708	-0.225807825854776
76.7361489361819	-0.000110956706502376	-0.228434608658952
77.6247116628692	-0.000113555174708841	-0.231092233010379
78.5235634610072	-0.000116214829158256	-0.233781071045624
79.4328234724282	-0.000118937126355364	-0.23650149974249
80.3526122185618	-0.000121723558216744	-0.239253900995061
81.2830516164099	-0.000124575652962018	-0.242038661690283
82.2242649947071	-0.000127494976052337	-0.244856173786154
83.1763771102671	-0.000130483131110539	-0.247706834391546
84.1395141645195	-0.000133541760917507	-0.250591045847719
85.1138038202377	-0.000136672548389244	-0.25350921581156
86.0993752184601	-0.000139877217614718	-0.256461757340612
87.0963589956081	-0.000143157534905286	-0.259449088979935
88.1048873008014	-0.000146515309873059	-0.262471634850844
89.1250938133746	-0.000149952396549785	-0.265529824741604
90.1571137605957	-0.000153470694522131	-0.2686240942001
91.2010839355909	-0.000157072150112314	-0.271754884628579
92.2571427154763	-0.000160758757586697	-0.274922643380494
93.3254300796991	-0.000164532560390449	-0.278127823859533
94.4060876285923	-0.000168395652432361	-0.281370885620881
95.4992586021436	-0.000172350179393784	-0.28465229447479
96.6050878989813	-0.000176398340075197	-0.287972522592534
97.7237220955811	-0.000180542387793906	-0.291332048614796
98.8553094656939	-0.000184784631799107	-0.29473135776259
100	-0.00018912743875256	-0.298170941950768
101.15794542599	-0.000193573234236274	-0.301651299904214
102.329299228075	-0.000198124504301684	-0.305172937276788
103.514216667934	-0.000202783797076713	-0.30873636677312
104.71285480509	-0.000207553724411426	-0.312342108273328
105.925372517729	-0.000212436963567113	-0.315990688960757
107.151930523761	-0.000217436258966144	-0.31968264345285
108.39269140212	-0.000222554423987183	-0.323418513935206
109.647819614319	-0.000227794342812498	-0.327198850298979
110.91748152624	-0.000233158972332209	-0.331024210281681
112.201845430196	-0.000238651344104488	-0.334895159611517
113.501081567231	-0.000244274566375591	-0.338812272155366
114.815362149688	-0.000250031826159716	-0.342776130070519
116.144861384034	-0.000255926391379644	-0.346787323960288
117.489755493953	-0.000261961613083614	-0.350846453033633
118.850222743702	-0.000268140927703701	-0.354954125268915
120.226443461741	-0.000274467859417422	-0.359110957581931
121.618600064637	-0.0002809460225605	-0.36331757599834
123.026877081238	-0.000287579124104296	-0.367574615830674
124.451461177138	-0.00029437096625093	-0.371882721860026
125.892541179417	-0.000301325449055465	-0.376242548522634
127.350308101666	-0.000308446573182195	-0.380654760101465
128.824955169313	-0.000315738442698602	-0.385120030923007
130.31667784523	-0.000323205268003415	-0.38963904555944
131.825673855641	-0.000330851368815495	-0.394212499036349
133.352143216332	-0.00033868117726791	-0.39884109704618
134.896288259165	-0.00034669924111394	-0.403525556167651
136.458313658892	-0.000354910227006453	-0.408266604091281
138.038426460289	-0.000363318923922027	-0.4130649798513
139.636836105594	-0.000371930246660361	-0.417921434064115
141.253754462275	-0.000380749239485556	-0.422836729173598
142.88939585111	-0.000389781079876456	-0.4278116397034
144.543977074593	-0.00039903108239474	-0.432846952516565
146.217717445672	-0.00040850470268139	-0.437943467082696
147.910838816821	-0.000418207541619138	-0.44310199575292
149.623565609443	-0.000428145349577004	-0.44832336404296
151.356124843621	-0.000438324030858441	-0.453608410924586
153.108746168203	-0.000448749648251837	-0.45895798912575
154.881661891248	-0.000459428427765353	-0.464372965439707
156.675107010815	-0.000470366763522955	-0.469854221043479
158.489319246111	-0.000481571222808157	-0.475402651825962
160.324539069004	-0.000493048551302726	-0.481019168726058
162.181009735893	-0.000504805678518446	-0.486704698081186
164.058977319954	-0.000516849723372751	-0.492460181986562
165.958690743756	-0.000529188000026866	-0.498286578665637
167.880401812256	-0.000541828023872666	-0.504184862852127
169.824365246174	-0.000554777517769537	-0.510156026184034
171.790838715759	-0.000568044418487834	-0.51620107761016
173.780082874938	-0.000581636883399472	-0.522321043809525
175.792361395869	-0.000595563297394439	-0.528516969624233
177.827941003892	-0.000609832280060861	-0.534789918506257
179.887091512879	-0.000624452693131524	-0.541140972978696
181.970085860998	-0.000639433648199775	-0.547571235112061
184.077200146896	-0.000654784514719265	-0.554081827016148
186.208713666287	-0.000670514928317479	-0.560673891348141
188.36490894898	-0.000686634799407615	-0.567348591837532
190.546071796325	-0.000703154322127788	-0.574107113828551
192.752491319094	-0.000720083983637461	-0.580950664840783
194.984459975805	-0.00073743457374704	-0.587880475148675
197.242273611485	-0.000755217194937534	-0.594897798380714
199.526231496888	-0.000773443272761652	-0.602003912139028
201.836636368156	-0.000792124566649499	-0.609200118640257
204.173794466953	-0.000811273181136268	-0.616487745378524
206.538015581053	-0.000830901577558252	-0.623868145811419
208.929613085404	-0.000851022586165145	-0.631342700069926
211.348903983665	-0.000871649418776916	-0.63891281569327
213.796208950223	-0.000892795681906244	-0.646579928389703
216.271852372702	-0.000914475390429479	-0.654345502824312
218.776162394955	-0.000936702981818718	-0.662211033434959
221.309470960564	-0.000959493330954348	-0.670178045277524
223.872113856834	-0.000982861765547021	-0.678248094901695
226.464430759306	-0.00100682408220194	-0.686422771258564
229.086765276777	-0.00103139656317565	-0.694703696641413
231.739464996848	-0.00105659599380125	-0.703092527661058
234.422881531992	-0.0010824396806893	-0.711590956257277
237.137370566166	-0.00110894547067821	-0.720200710747823
239.883291901949	-0.00113613177063188	-0.728923556916701
242.661009508242	-0.00116401756804876	-0.737761299143378
245.470891568503	-0.00119262245261859	-0.746715781574718
248.313310529557	-0.00122196663868627	-0.755788889341545
251.188643150958	-0.00125207098872434	-0.764982549821786
254.09727055493	-0.00128295703785179	-0.774298733952257
257.039578276886	-0.00131464701943779	-0.783739457591303
260.015956316527	-0.00134716389186492	-0.793306782934536
263.026799189538	-0.00138053136651752	-0.803002819986081
266.072505979881	-0.00141477393702128	-0.812829728087906
269.153480392691	-0.00144991690985307	-0.822789717509796
272.270130807791	-0.00148598643635672	-0.832885051102859
275.422870333817	-0.00152300954625372	-0.843118046019437
278.612116862977	-0.00156101418271847	-0.853491075502561
281.838293126445	-0.00160002923912444	-0.864006570748163
285.101826750391	-0.00164008459753674	-0.874667022843528
288.403150312661	-0.00168121116903029	-0.885474984785547
291.742701400117	-0.00172344093599225	-0.896433073582634
295.120922666638	-0.00176680699643689	-0.907543972444265
298.538261891796	-0.00181134361052317	-0.918810433062461
301.995172040202	-0.00185708624935178	-0.930235277989562
305.492111321551	-0.00190407164618352	-0.941821403117155
309.029543251359	-0.00195233785023598	-0.953571780261017
312.607936712396	-0.00200192428315426	-0.965489459857405
316.227766016838	-0.00205287179840129	-0.977577573776216
319.88951096914	-0.00210522274363286	-0.989839338256934
323.593656929628	-0.00215902102631837	-1.00227805697352
327.340694878838	-0.00221431218274589	-1.01489712423489
331.131121482591	-0.0022711434506542	-1.02770002832786
334.965439157828	-0.00232956384566535	-1.04069035501
338.844156139202	-0.00238962424179609	-1.05387179116011
342.76778654645	-0.00245137745626057	-1.06724812859472
346.736850452532	-0.00251487833883501	-1.08082326805919
350.751873952568	-0.00258018386609523	-1.09460122340284
354.813389233575	-0.00264735324078075	-1.10858612594792
358.921934645005	-0.00271644799666478	-1.1227822290629
363.078054770101	-0.00278753210922275	-1.13719391295114
367.282300498084	-0.00286067211252526	-1.15182568966675
371.535229097173	-0.0029359372226984	-1.16668220837026
375.837404288444	-0.00301339946843366	-1.18176826083729
380.189396320561	-0.00309313382896385	-1.19708878723458
384.591782045354	-0.00317521838002831	-1.21264888217826
389.045144994281	-0.00325973444832798	-1.22845380109069
393.550075455777	-0.00334676677506728	-1.2445089668727
398.107170553497	-0.00343640368918245	-1.26081997690981
402.717034325459	-0.00352873729092109	-1.27739261043163
407.380277804113	-0.00362386364645231	-1.29423283624527
412.09751909733	-0.00372188299434361	-1.3113468208651
416.869383470335	-0.00382289996465206	-1.32874093706229
421.696503428582	-0.00392702381154764	-1.34642177285963
426.579518801593	-0.00403436866044596	-1.36439614099863
431.519076827765	-0.00414505377070111	-1.3826710889078
436.515832240166	-0.00425920381489189	-1.40125390920324
441.570447353312	-0.00437694917604773	-1.4201521507546
446.683592150963	-0.00449842626398081	-1.4393736303521
451.855944374923	-0.0046237778523114	-1.45892644501275
457.088189614875	-0.00475315343754846	-1.47881898496665
462.38102139926	-0.00488670962206414	-1.49905994736746
467.735141287198	-0.00502461052265319	-1.5196583507742
473.151258961481	-0.00516702820670536	-1.54062355045522
478.630092322638	-0.00531414315814153	-1.56196525456894
484.172367584099	-0.00546614477541452	-1.58369354128025
489.778819368446	-0.00562323190412108	-1.6058188768759
495.45019080479	-0.00578561340701194	-1.62835213494719
501.187233627272	-0.00595350877437489	-1.65130461671375
506.990708274704	-0.00612714877811447	-1.67468807256787
512.861383991365	-0.00630677617314532	-1.69851472492541
518.800038928961	-0.00649264644993563	-1.72279729247619
524.807460249773	-0.00668502864260269	-1.7475490159345
530.884444230988	-0.00688420619723883	-1.77278368539851
537.031796370253	-0.00709047790557908	-1.79851566943663
543.250331492433	-0.00730415890973436	-1.82475994602889
549.540873857625	-0.00752558178419929	-1.85153213550207
555.904257270404	-0.00775509770194023	-1.87884853560962
